#Ack,ack_ewma(ms),send_ewma(ms),rtt_ratio,cwnd (Bytes),Last Router Ocupation Ack Arriaval(Packets),Last Router Ocupation Packet Sent(Packets),Network Situation,AckArrival(ms),TSInsideAck(ms),RTTAck(ms)
27741,48.4396,97.9399,342,39420,0.112904,0.05,1,1906,1564,342
30661,48.3847,85.6974,390,42340,0.136613,0.09,1,1954,1564,390
33581,48.3366,80.9852,390,45260,0.161952,0.09,1,2002,1612,390
36501,48.2945,70.8621,438,48180,0.188757,0.13,1,2050,1612,438
39421,48.2577,68.0043,438,51100,0.216881,0.13,1,2098,1660,438
42341,48.2255,59.5038,486,54020,0.246193,0.15,1,2146,1660,486
45261,48.1973,58.8158,480,56940,0.276574,0.15,1,2194,1714,480
48181,48.1726,51.4638,528,59860,0.307916,0.19,1,2242,1714,528
51101,48.1511,51.0308,528,62780,0.340125,0.19,1,2290,1762,528
54021,48.1322,44.652,576,65700,0.373112,0.23,1,2338,1762,576
56941,48.1157,45.0705,576,68620,0.406801,0.23,1,2386,1810,576
59861,48.1012,39.4367,624,71540,0.441121,0.27,1,2434,1810,624
62781,48.0886,40.5071,624,74460,0.471009,0.27,1,2482,1858,624
65701,48.0775,35.4437,672,77380,0.493908,0.31,1,2530,1858,672
68621,48.0678,37.0132,672,80300,0.510517,0.31,1,2578,1906,672
71541,48.0593,32.3866,720,83220,0.521465,0.35,1,2626,1906,720
74461,48.0519,34.3383,720,86140,0.527319,0.35,1,2674,1954,720
77381,48.0454,30.046,768,89060,0.528587,0.39,1,2722,1954,768
80301,48.0397,32.2902,768,91980,0.525728,0.39,1,2770,2002,768
83221,48.0348,28.254,816,94900,0.519155,0.43,1,2818,2002,816
86141,48.0304,30.7222,816,97820,0.50924,0.43,1,2866,2050,816
89061,48.0266,26.8819,864,100740,0.496316,0.47,1,2914,2050,864
91981,48.0233,29.5217,864,103660,0.480684,0.47,1,2962,2098,864
94901,48.0204,25.8315,912,106580,0.462616,0.51,1,3010,2098,912
97821,48.0178,28.6025,912,109500,0.442354,0.51,1,3058,2146,912
100741,48.0156,25.0272,960,112420,0.420119,0.55,1,3106,2146,960
103661,48.0137,27.8988,960,115340,0.396107,0.55,1,3154,2194,960
106581,48.0119,24.4115,1008,118260,0.370496,0.59,1,3202,2194,1008
109501,48.0105,27.36,1008,121180,0.343447,0.59,1,3250,2242,1008
112421,48.0091,23.94,1056,124100,0.315102,0.63,1,3298,2242,1056
115341,48.008,26.9475,1056,127020,0.285592,0.63,1,3346,2290,1056
118261,48.007,23.5791,1104,129940,0.257033,0.67,1,3394,2290,1104
121181,48.0061,26.6317,1104,132860,0.231329,0.67,1,3442,2338,1104
124101,48.0054,23.3027,1152,132860,0.208196,0.71,1,3490,2338,1152
127021,48.0047,26.3899,1152,132860,0.187377,0.71,1,3538,2386,1152
129941,48.0041,23.0912,1200,132860,0.168639,0.75,1,3586,2386,1200
131041,69.2536,26.2048,1370,132860,0.151775,0,1,3804,2434,1370
133961,190.097,289.929,270,132860,0.236598,0,1,4840,4570,270
136881,172.335,253.688,318,132860,0.312938,0,1,4888,4570,318
139801,156.793,221.977,366,132860,0.381644,0,1,4936,4570,366
142721,143.194,194.23,414,132860,0.44348,0,1,4984,4570,414
145641,131.295,169.951,462,132860,0.499132,0,1,5032,4570,462
148561,120.883,148.707,510,132860,0.549219,0,1,5080,4570,510
151481,111.772,130.119,558,134320,0.594297,0,1,5128,4570,558
160241,90.7225,87.1695,702,134320,0.704242,0,2,5272,4570,702
163161,85.3822,76.2733,750,134320,0.733818,0,2,5320,4570,750
166081,80.7094,66.7391,798,134320,0.760436,0,2,5368,4570,798
169001,76.6208,58.3967,846,134320,0.784393,0,2,5416,4570,846
171921,73.0432,51.0971,894,134320,0.805953,0,2,5464,4570,894
174841,69.9128,44.71,942,134320,0.825358,0,2,5512,4570,942
177761,67.1737,39.1212,990,134320,0.842822,0,2,5560,4570,990
180681,64.777,34.2311,1038,135780,0.85854,0,2,5608,4570,1038
183601,62.6798,29.9522,1086,135780,0.872686,0,2,5656,4570,1086
186521,60.8449,26.2082,1134,135780,0.885417,0,2,5704,4570,1134
189441,59.2393,22.9322,1182,135780,0.896876,0,2,5752,4570,1182
192361,57.8343,20.0656,1230,135780,0.907188,0,2,5800,4570,1230
195281,56.6051,17.5574,1278,135780,0.916469,0,2,5848,4570,1278
198201,55.5294,15.3628,1326,135780,0.924822,0,2,5896,4570,1326
201121,54.5882,13.4424,1374,135780,0.93234,0,2,5944,4570,1374
204041,53.7647,11.7621,1422,137240,0.939106,0,2,5992,4570,1422
206961,53.0441,10.2918,1470,137240,0.945195,0,2,6040,4570,1470
212801,17.9412,0.022124,2489,93680,0.946261,0,2,7059,4570,2489
212801,18.6985,0.0193585,2513,93480,0.942634,0,2,7083,4570,2513
212801,16.8612,0.0169387,2517,93480,0.941371,0,2,7087,4570,2517
212801,17.7536,0.0148214,2541,93480,0.938234,0,2,7111,4570,2541
212801,18.5344,0.0129687,2565,93480,0.936411,0,2,7135,4570,2565
212801,16.7176,0.0113476,2569,93280,0.936769,0,2,7139,4570,2569
212801,17.6279,0.00992915,2593,93280,0.935093,0,2,7163,4570,2593
212801,18.4244,0.008688,2617,93280,0.934583,0,2,7187,4570,2617
212801,16.6213,0.007602,2621,93080,0.936125,0,2,7191,4570,2621
212801,17.5437,0.00665175,2645,93080,0.935512,0,2,7215,4570,2645
212801,16.6007,0.00582028,2655,93080,0.936961,0,2,7225,4570,2655
212801,17.5256,0.00509275,2679,93080,0.936265,0,2,7249,4570,2679
212801,18.3349,0.00445616,2703,92880,0.936639,0,2,7273,4570,2703
212801,16.5431,0.00389914,2707,92260,0.938975,0,2,7277,4570,2707
212801,17.4752,0.00341174,2731,92260,0.939077,0,2,7301,4570,2731
212801,18.2908,0.00298528,2755,92260,0.94017,0,2,7325,4570,2755
212801,16.5044,0.00261212,2759,92060,0.943153,0,2,7329,4570,2759
212801,17.4414,0.0022856,2783,92060,0.943837,0,2,7353,4570,2783
212801,18.2612,0.0019999,2807,92060,0.943454,0,2,7377,4570,2807
212801,16.4786,0.00174991,2811,91860,0.945108,0,2,7381,4570,2811
212801,17.4187,0.00153117,2835,91860,0.944597,0,2,7405,4570,2835
212801,18.2414,0.00133978,2859,91860,0.943138,0,2,7429,4570,2859
212801,16.4612,0.00117231,2863,91660,0.943824,0,2,7433,4570,2863
212801,17.4036,0.00102577,2887,91660,0.941441,0,2,7457,4570,2887
212801,16.4781,0.000897546,2897,91660,0.935297,0,2,7467,4570,2897
212801,17.4184,0.000785353,2921,91660,0.928768,0,2,7491,4570,2921
212801,18.2411,0.000687184,2945,91460,0.921891,0,2,7515,4570,2945
212801,16.4609,0.000601286,2949,90840,0.916702,0,2,7519,4570,2949
212801,17.4033,0.000526125,2973,90840,0.910032,0,2,7543,4570,2973
212801,18.2279,0.00046036,2997,90840,0.905028,0,2,7567,4570,2997
212801,16.4494,0.000402815,3001,90640,0.902526,0,2,7571,4570,3001
212801,17.3932,0.000352463,3025,90640,0.897273,0,2,7595,4570,3025
212801,15.7191,0.000308405,3029,90640,0.893546,0,2,7599,4570,3029
212801,16.7542,0.000269854,3053,89380,0.888191,0,2,7623,4570,3053
212801,15.1599,0.000236123,3057,87520,0.885372,0,2,7627,4570,3057
212801,14.5149,0.000206607,3067,87520,0.880835,0,2,7637,4570,3067
212801,15.7006,0.000180781,3091,87320,0.874751,0,2,7661,4570,3091
212801,16.738,0.000158184,3115,85240,0.869276,0,2,7685,4570,3115
212801,15.1457,0.000138411,3119,83780,0.866349,0,2,7689,4570,3119
212801,16.2525,0.000121109,3143,82320,0.861714,0,2,7713,4570,3143
212801,17.221,0.000105971,3167,80460,0.857542,0,2,7737,4570,3167
212801,15.5683,9.27244e-05,3171,77340,0.854788,0,2,7741,4570,3171
212801,16.6223,8.11338e-05,3195,74620,0.850309,0,2,7765,4570,3195
212801,15.7945,7.09921e-05,3205,74220,0.846278,0,2,7775,4570,3205
212801,16.8202,6.21181e-05,3229,72760,0.840651,0,2,7799,4570,3229
212801,17.7177,5.43533e-05,3253,72140,0.835585,0,2,7823,4570,3253
212801,16.003,4.75592e-05,3257,72140,0.832027,0,2,7827,4570,3257
223021,17.0026,204.75,1643,70880,0.826824,0.97,2,7851,6208,1643
223021,17.8773,179.156,1667,94900,0.844142,0,2,7875,6208,1667
227401,18.6426,168.887,1594,94900,0.859728,0.96,2,7899,6305,1594
231781,19.3123,150.776,1594,94900,0.873755,0.95,2,7923,6329,1594
231781,19.8982,131.929,1618,94900,0.886379,0,2,7947,6329,1618
236161,20.411,124.438,1570,94900,0.897741,0.94,2,7971,6401,1570
242001,20.8596,111.883,1570,94900,0.907967,0.95,2,7995,6425,1570
242001,21.2521,97.8977,1594,94900,0.917171,0,2,8019,6425,1594
246381,21.5956,94.6605,1546,94900,0.925453,0.95,2,8043,6497,1546
246381,21.8962,82.8279,1570,94560,0.932908,0,2,8067,6497,1570
249301,22.1592,81.4744,1522,94560,0.939617,0.96,2,8091,6569,1522
253681,22.3893,74.2901,1522,94900,0.945656,0.97,2,8115,6593,1522
314081,23.7516,13.1935,1786,54760,0.946691,0,2,8451,6665,1786
314081,23.7827,11.5443,1810,54760,0.937022,0,2,8475,6665,1810
314081,23.8098,10.1013,1834,54760,0.92632,0,2,8499,6665,1834
314081,23.8336,8.83862,1858,54760,0.914688,0,2,8523,6665,1858
314081,23.8544,7.73379,1882,54760,0.902219,0,2,8547,6665,1882
314081,23.8726,6.76707,1906,54760,0.888997,0,2,8571,6665,1906
314081,23.8885,5.92119,1930,54760,0.875098,0,2,8595,6665,1930
314081,23.9025,5.18104,1954,54760,0.859588,0,2,8619,6665,1954
314081,23.9147,4.53341,1978,54760,0.843629,0,2,8643,6665,1978
314081,23.9253,3.96673,2002,54760,0.827266,0,2,8667,6665,2002
314081,23.9347,3.47089,2026,54760,0.810539,0,2,8691,6665,2026
314081,23.9428,3.03703,2050,54760,0.793486,0,2,8715,6665,2050
314081,23.95,2.6574,2074,54760,0.777137,0,2,8739,6665,2074
314081,23.9562,2.32523,2098,54760,0.760423,0,2,8763,6665,2098
314081,23.9617,2.03457,2122,54760,0.742381,0,2,8787,6665,2122
314081,23.9665,1.78025,2146,54760,0.723143,0,2,8811,6665,2146
315341,23.9707,1.55772,2170,54760,0.703829,0.85,2,8835,6665,2170
331761,18.9574,58.9177,1168,54560,0.596551,0.78,1,8991,7823,1168
334681,19.5877,55.0529,1164,54560,0.588896,0.78,1,9015,7851,1164
336341,17.5142,48.1713,1167,53680,0.571007,0.78,1,9018,7851,1167
343201,18.3249,42.1499,1191,54360,0.551906,0.83,1,9042,7851,1191
346121,22.0343,37.7562,1232,96360,0.588715,0.83,1,9090,7858,1232
353601,27.4825,22.132,1379,96360,0.727969,0,2,9237,7858,1379
353601,27.0472,19.3655,1403,96360,0.755172,0,2,9261,7858,1403
353601,26.6663,16.9448,1427,96360,0.779655,0,2,9285,7858,1427
353601,26.333,14.8267,1451,96360,0.80169,0,2,9309,7858,1451
353601,26.0414,12.9734,1475,96360,0.821521,0,2,9333,7858,1475
353601,25.7862,11.3517,1499,96360,0.839369,0,2,9357,7858,1499
353601,22.9379,9.93273,1502,96360,0.855432,0,2,9360,7858,1502
356521,26.0707,14.6911,1502,96360,0.869889,1,2,9408,7906,1502
357761,28.3119,12.8547,1546,97820,0.8799,1,2,9452,7906,1546
357761,27.7729,11.2479,1570,97820,0.88691,0,2,9476,7906,1570
357761,27.3013,9.84191,1594,97820,0.891219,0,2,9500,7906,1594
357761,26.8886,8.61167,1618,97820,0.893097,0,2,9524,7906,1618
357761,26.5275,7.53522,1642,97820,0.892787,0,2,9548,7906,1642
357761,26.2116,6.59331,1666,82980,0.892508,0.89,2,9572,7906,1666
357761,26.0601,5.76915,1691,82305,0.890258,0,2,9597,7906,1691
357761,25.8026,5.04801,1715,81968,0.888232,0,2,9621,7906,1715
357761,25.5773,4.417,1739,81630,0.886409,0,2,9645,7906,1739
357761,25.3801,3.86488,1763,79833,0.882768,0,2,9669,7906,1763
357761,25.2076,3.38177,1787,79495,0.879491,0,2,9693,7906,1787
357761,25.0567,2.95905,1811,79157,0.876542,0,2,9717,7906,1811
357761,24.9246,2.58917,1835,78820,0.873888,0,2,9741,7906,1835
357761,24.809,2.26552,1859,78482,0.869499,0,2,9765,7906,1859
357761,24.7079,1.98233,1883,78145,0.865549,0,2,9789,7906,1883
357761,24.6194,1.73454,1907,77807,0.861994,0,2,9813,7906,1907
357761,24.542,1.51772,1931,77469,0.858795,0,2,9837,7906,1931
357761,24.4742,1.32801,1955,77132,0.853915,0,2,9861,7906,1955
357761,24.4149,1.16201,1979,76794,0.849524,0,2,9885,7906,1979
357761,24.3631,1.01676,2003,76457,0.845571,0,2,9909,7906,2003
357761,24.3177,0.889661,2027,76119,0.842014,0,2,9933,7906,2027
357761,24.278,0.778453,2051,75781,0.838813,0,2,9957,7906,2051
357761,24.2432,0.681147,2075,75444,0.833932,0,2,9981,7906,2075
357761,24.2128,0.596003,2099,75106,0.829538,0,2,10005,7906,2099
357761,24.1862,0.521503,2123,74769,0.825585,0,2,10029,7906,2123
357761,24.1629,0.456315,2147,74431,0.822026,0,2,10053,7906,2147
357761,24.1426,0.399276,2171,74093,0.816823,0,2,10077,7906,2171
357761,24.1248,0.349366,2195,73756,0.812141,0,2,10101,7906,2195
357761,24.1092,0.305695,2219,73418,0.807927,0,2,10125,7906,2219
357761,24.0955,0.267483,2243,73081,0.804134,0,2,10149,7906,2243
357761,24.0836,0.234048,2267,72743,0.798721,0,2,10173,7906,2267
357761,24.0731,0.204792,2291,72406,0.793849,0,2,10197,7906,2291
357761,24.064,0.179193,2315,72068,0.789464,0,2,10221,7906,2315
357761,24.056,0.156794,2339,71730,0.785518,0,2,10245,7906,2339
357761,24.049,0.137195,2363,71393,0.781966,0,2,10269,7906,2363
357761,24.0429,0.120045,2387,71055,0.776769,0,2,10293,7906,2387
357761,24.0375,0.10504,2411,70718,0.772092,0,2,10317,7906,2411
357761,24.0328,0.0919097,2435,70380,0.767883,0,2,10341,7906,2435
357761,24.0287,0.080421,2459,70042,0.764095,0,2,10365,7906,2459
357761,24.0251,0.0703684,2483,69705,0.758685,0,2,10389,7906,2483
357761,24.022,0.0615723,2507,67160,0.751817,0,2,10413,7906,2507
357761,24.0192,0.0538758,2531,66920,0.745635,0,2,10437,7906,2531
357761,24.0168,0.0471413,2555,66920,0.738072,0,2,10461,7906,2555
357761,24.0147,0.0412486,2579,66920,0.732264,0,2,10485,7906,2579
357761,24.0129,0.0360926,2603,66920,0.723038,0,2,10509,7906,2603
357761,24.0113,0.031581,2627,66920,0.715734,0,2,10533,7906,2627
357761,24.0099,0.0276334,2651,66920,0.710161,0,2,10557,7906,2651
357761,24.0086,0.0241792,2675,66920,0.706145,0,2,10581,7906,2675
357761,24.0076,0.0211568,2699,66920,0.70353,0,2,10605,7906,2699
357761,24.0066,0.0185122,2723,66920,0.702177,0,2,10629,7906,2723
357761,24.0058,0.0161982,2747,66920,0.700959,0,2,10653,7906,2747
436601,23.8478,55.8391,1507,27500,0.587819,0,1,11104,9597,1507
436601,23.8668,48.8592,1531,27500,0.573037,0,1,11128,9597,1531
436601,23.8835,42.7518,1555,27500,0.557733,0,1,11152,9597,1555
436601,23.898,37.4078,1579,27500,0.54196,0,1,11176,9597,1579
436601,23.9108,32.7318,1603,27500,0.525764,0,1,11200,9597,1603
436601,23.9219,28.6404,1627,27500,0.509188,0,1,11224,9597,1627
436601,23.9317,25.0603,1651,27500,0.492269,0,1,11248,9597,1651
436601,23.9402,21.9278,1675,27500,0.475042,0,1,11272,9597,1675
436601,23.9477,19.1868,1699,27500,0.457538,0,1,11296,9597,1699
436601,23.9542,16.7885,1723,27500,0.439784,0,1,11320,9597,1723
436601,23.96,14.6899,1747,27500,0.421806,0,1,11344,9597,1747
436601,23.965,12.8537,1771,27500,0.403625,0,1,11368,9597,1771
436601,23.9693,11.247,1795,27500,0.385262,0,1,11392,9597,1795
436601,23.9732,9.84108,1819,27500,0.366736,0,1,11416,9597,1819
436601,23.9765,8.61095,1843,27500,0.348063,0,1,11440,9597,1843
436601,23.9795,7.53458,1867,27500,0.329256,0,1,11464,9597,1867
436601,23.982,6.59276,1891,27500,0.310331,0,1,11488,9597,1891
436601,23.9843,5.76866,1915,27500,0.291298,0,1,11512,9597,1915
436601,23.9862,5.04758,1939,27500,0.272168,0,1,11536,9597,1939
436601,23.988,4.41663,1963,27500,0.252951,0,1,11560,9597,1963
436601,23.9895,3.86455,1987,27500,0.233656,0,1,11584,9597,1987
436601,23.9908,3.38148,2011,27500,0.21429,0,1,11608,9597,2011
436601,23.9919,2.9588,2035,27500,0.194861,0,1,11632,9597,2035
436601,23.9929,2.58895,2059,27500,0.175375,0,1,11656,9597,2059
436601,23.9938,2.26533,2083,27500,0.157838,0,1,11680,9597,2083
436601,23.9946,1.98216,2107,27500,0.142054,0,1,11704,9597,2107
436601,23.9953,1.73439,2131,27500,0.127849,0,1,11728,9597,2131
436601,23.9959,1.51759,2155,27500,0.115064,0,1,11752,9597,2155
436601,23.9964,1.32789,2179,27500,0.103557,0,1,11776,9597,2179
445121,23.9968,142.162,1075,27500,0.0932016,0,1,11800,10725,1075
445121,23.9972,124.392,1099,67160,0.0838814,0,1,11824,10725,1099
445121,23.9976,108.843,1123,67160,0.0754933,0,1,11848,10725,1123
445121,23.9979,95.2374,1147,67160,0.067944,0,1,11872,10725,1147
445121,23.4981,83.3327,1167,67160,0.0611496,0,1,11892,10725,1167
448041,159.811,324.291,270,67160,0.124035,0,1,13006,12736,270
450961,145.835,283.755,318,68620,0.182631,0,1,13054,12736,318
453881,133.605,248.285,366,70080,0.237368,0,1,13102,12736,366
456801,122.905,217.25,414,70080,0.286631,0,1,13150,12736,414
459721,113.541,190.093,462,71540,0.332968,0,1,13198,12736,462
462641,105.349,166.332,510,71540,0.374671,0,1,13246,12736,510
465561,98.1802,145.54,558,71540,0.412204,0,1,13294,12736,558
468481,91.9077,127.348,606,73000,0.447984,0,1,13342,12736,606
471401,86.4192,111.429,654,73000,0.480185,0,1,13390,12736,654
474321,81.6168,97.5007,702,73000,0.509167,0,1,13438,12736,702
477241,77.4147,85.3131,750,73000,0.53525,0,1,13486,12736,750
480161,73.7379,74.6489,798,74460,0.560725,0,1,13534,12736,798
483081,70.5206,65.3178,846,74460,0.583653,0,1,13582,12736,846
506441,55.7383,22.4438,1230,75920,0.709364,0,2,13966,12736,1230
509361,54.771,19.6383,1278,75920,0.719428,0,2,14014,12736,1278
512281,53.9246,17.1835,1326,75920,0.728485,0.69,2,14062,12736,1326
515201,53.1841,48.7856,1104,77380,0.738637,0.69,2,14110,13006,1104
518121,52.536,42.6874,1152,77380,0.747773,0.71,2,14158,13006,1152
521041,51.969,43.3515,1152,77380,0.755996,0.73,2,14206,13054,1152
523961,51.4729,43.9325,1152,77380,0.763396,0.73,2,14254,13102,1152
526881,51.0388,44.441,1152,77380,0.770057,0.73,2,14302,13150,1152
529801,50.6589,38.8858,1200,77380,0.776051,0.75,2,14350,13150,1200
532721,50.3266,40.0251,1200,77380,0.781446,0.75,2,14398,13198,1200
535641,50.0358,41.022,1200,77380,0.786301,0.75,2,14446,13246,1200
538561,49.7813,41.8942,1200,78840,0.792671,0.77,2,14494,13294,1200
541481,49.5586,42.6574,1200,78840,0.798404,0.77,2,14542,13342,1200
544401,49.3638,43.3253,1200,78840,0.802564,0.77,2,14590,13390,1200
547321,49.1933,43.9096,1200,78840,0.802307,0.77,2,14638,13438,1200
550241,49.0442,44.4209,1200,78840,0.798076,0.77,2,14686,13486,1200
553161,48.9136,38.8683,1248,78840,0.790269,0.79,2,14734,13486,1248
556081,48.7994,40.0098,1248,78840,0.779242,0.79,2,14782,13534,1248
559001,48.6995,41.0085,1248,78840,0.765318,0.79,2,14830,13582,1248
561921,48.6121,41.8825,1248,78840,0.748786,0.79,2,14878,13630,1248
564841,48.5356,42.6472,1248,78840,0.757907,0.79,2,14926,13678,1248
567761,48.4686,43.3163,1248,78840,0.766117,0.81,2,14974,13726,1248
570681,48.41,43.9017,1248,78840,0.773505,0.81,2,15022,13774,1248
573601,48.3588,44.414,1248,78840,0.780154,0.81,2,15070,13822,1248
576521,48.3139,44.8623,1248,78840,0.786139,0.81,2,15118,13870,1248
579441,48.2747,45.2545,1248,80300,0.793525,0.81,2,15166,13918,1248
582361,48.2404,45.5977,1248,80300,0.800173,0.81,2,15214,13966,1248
585281,48.2103,45.898,1248,80300,0.806155,0.81,2,15262,14014,1248
588201,48.184,46.1607,1248,80300,0.81154,0.81,2,15310,14062,1248
591121,48.161,40.3906,1296,80300,0.816386,0.83,2,15358,14062,1296
594041,48.1409,41.3418,1296,80300,0.820747,0.83,2,15406,14110,1296
596961,48.1233,42.1741,1296,80300,0.824673,0.83,2,15454,14158,1296
599881,48.1079,42.9023,1296,80300,0.828205,0.83,2,15502,14206,1296
602801,48.0944,43.5395,1296,80300,0.831385,0.83,2,15550,14254,1296
605721,48.0826,44.0971,1296,80300,0.834246,0.83,2,15598,14302,1296
608641,48.0723,44.5849,1296,80300,0.837822,0.83,2,15646,14350,1296
611561,48.0632,45.0118,1296,80300,0.841039,0.83,2,15694,14398,1296
614481,48.0553,45.3854,1296,80300,0.843936,0.85,2,15742,14446,1296
617401,48.0484,45.7122,1296,80300,0.846542,0.85,2,15790,14494,1296
619841,47.0424,45.9982,1288,80300,0.848888,0.57,2,15830,14542,1288
622761,47.1621,87.6234,957,80300,0.850999,0.57,2,15878,14921,957
625681,47.2668,76.6705,1005,81760,0.854899,0.57,2,15926,14921,1005
628601,47.3585,67.0867,1053,81760,0.858409,0.57,2,15974,14921,1053
631521,47.4386,58.7008,1101,81760,0.861568,0.57,2,16022,14921,1101
634441,47.5088,51.3632,1149,81760,0.864411,0.57,2,16070,14921,1149
637361,47.5702,44.9428,1197,81760,0.86697,0.57,2,16118,14921,1197
640281,47.6239,39.325,1245,81760,0.869273,0.84,2,16166,14921,1245
643201,47.6709,35.0343,1288,81760,0.870346,0.84,2,16214,14926,1288
646121,47.7121,36.6551,1288,81760,0.867311,0.84,2,16262,14974,1288
649041,47.7481,38.0732,1288,81760,0.86058,0.84,2,16310,15022,1288
651961,47.7796,39.314,1288,81760,0.850522,0.84,2,16358,15070,1288
654881,47.8071,40.3998,1288,81760,0.83747,0.84,2,16406,15118,1288
657801,47.8312,35.3498,1336,83220,0.821723,0.86,2,16454,15118,1336
660721,47.8523,36.9311,1336,83220,0.803551,0.86,2,16502,15166,1336
663641,47.8708,38.3147,1336,83220,0.783196,0.86,2,16550,15214,1336
666561,47.8869,39.5254,1336,83220,0.760876,0.86,2,16598,15262,1336
669481,47.9011,40.5847,1336,83220,0.736789,0.86,2,16646,15310,1336
672401,47.9134,41.5116,1336,83220,0.71111,0.86,2,16694,15358,1336
684081,47.9493,44.1966,1336,84680,0.595435,0.86,1,16886,15550,1336
687001,47.9556,44.672,1336,84680,0.563892,0.87,1,16934,15598,1336
689921,47.9611,45.088,1336,84680,0.531502,0.87,1,16982,15646,1336
692841,47.966,45.452,1336,84680,0.498352,0.87,1,17030,15694,1336
