#Ack,ack_ewma(ms),send_ewma(ms),rtt_ratio,cwnd (Bytes),Last Router Ocupation Ack Arriaval(Packets),Last Router Ocupation Packet Sent(Packets),Network Situation,AckArrival(ms),TSInsideAck(ms),RTTAck(ms)
35041,555.483,582.667,644,1460,0,0,1,11296,10652,644
36501,566.548,590.334,644,1460,0,0,1,11940,11296,644
37961,576.229,597.042,644,1460,0,0,1,12584,11940,644
39421,584.701,602.912,644,1460,0,0,1,13228,12584,644
40881,592.113,608.048,644,1460,0,0,1,13872,13228,644
42341,598.599,612.542,644,1460,0,0,1,14516,13872,644
43801,604.274,616.474,644,1460,0,0,1,15160,14516,644
45261,609.24,619.915,644,1460,0,0,1,15804,15160,644
46721,613.585,622.926,644,1460,0,0,1,16448,15804,644
48181,617.387,625.56,644,1460,0,0,1,17092,16448,644
49641,620.713,627.865,644,1460,0,0,1,17736,17092,644
51101,623.624,629.882,644,1460,0,0,1,18380,17736,644
52561,626.171,631.647,644,1460,0,0,1,19024,18380,644
54021,628.4,633.191,644,1460,0,0,1,19668,19024,644
55481,630.35,634.542,644,1460,0,0,1,20312,19668,644
56941,632.056,635.724,644,1460,0,0,1,20956,20312,644
58401,633.549,636.759,644,1460,0,0,1,21600,20956,644
59861,634.855,637.664,644,1460,0,0,1,22244,21600,644
61321,635.999,638.456,644,1460,0,0,1,22888,22244,644
62781,636.999,639.149,644,1460,0,0,1,23532,22888,644
64241,637.874,639.755,644,1460,0,0,1,24176,23532,644
65701,638.64,640.286,644,1460,0,0,1,24820,24176,644
67161,639.31,640.75,644,1460,0,0,1,25464,24820,644
68621,639.896,641.156,644,1460,0,0,1,26108,25464,644
70081,640.409,641.512,644,1460,0,0,1,26752,26108,644
71541,640.858,641.823,644,1460,0,0,1,27396,26752,644
73001,641.251,642.095,644,1460,0,0,1,28040,27396,644
74461,641.594,642.333,644,1460,0,0,1,28684,28040,644
75921,641.895,642.541,644,1460,0,0,1,29328,28684,644
77381,642.158,642.724,644,1460,0,0,1,29972,29328,644
78841,642.388,642.883,644,1460,0,0,1,30616,29972,644
80301,642.59,643.023,644,1460,0,0,1,31260,30616,644
81761,642.766,643.145,644,1460,0,0,1,31904,31260,644
83221,642.92,643.252,644,1460,0,0,1,32548,31904,644
84681,643.055,643.345,644,1460,0,0,1,33192,32548,644
86141,643.173,643.427,644,1460,0,0,1,33836,33192,644
87601,643.277,643.499,644,1460,0,0,1,34480,33836,644
89061,643.367,643.561,644,1460,0,0,1,35124,34480,644
90521,643.446,643.616,644,1460,0,0,1,35768,35124,644
91981,643.515,643.664,644,1460,0,0,1,36412,35768,644
93441,643.576,643.706,644,1460,0,0,1,37056,36412,644
94901,643.629,643.743,644,1460,0,0,1,37700,37056,644
96361,643.675,643.775,644,1460,0,0,1,38344,37700,644
97821,643.716,643.803,644,1460,0,0,1,38988,38344,644
99281,643.751,643.828,644,1460,0,0,1,39632,38988,644
100741,643.783,643.849,644,1460,0,0,1,40276,39632,644
102201,643.81,643.868,644,1460,0,0,1,40920,40276,644
103661,643.834,643.885,644,1460,0,0,1,41564,40920,644
105121,643.854,643.899,644,1460,0,0,1,42208,41564,644
106581,643.873,643.912,644,1460,0,0,1,42852,42208,644
108041,643.888,643.923,644,1460,0,0,1,43496,42852,644
109501,643.902,643.932,644,1460,0,0,1,44140,43496,644
110961,643.915,643.941,644,1460,0,0,1,44784,44140,644
112421,643.925,643.948,644,1460,0,0,1,45428,44784,644
113881,643.935,643.955,644,1460,0,0,1,46072,45428,644
115341,643.943,643.96,644,1460,0,0,1,46716,46072,644
116801,643.95,643.965,644,1460,0,0,1,47360,46716,644
118261,643.956,643.97,644,1460,0,0,1,48004,47360,644
119721,643.962,643.973,644,1460,0,0,1,48648,48004,644
121181,643.966,643.977,644,1460,0,0,1,49292,48648,644
122641,643.971,643.98,644,1460,0,0,1,49936,49292,644
124101,643.974,643.982,644,1460,0,0,1,50580,49936,644
125561,643.978,643.984,644,1460,0,0,1,51224,50580,644
127021,643.98,643.986,644,1460,0,0,1,51868,51224,644
128481,643.983,643.988,644,1460,0,0,1,52512,51868,644
129941,643.985,643.99,644,1460,0,0,1,53156,52512,644
131401,643.987,643.991,644,1460,0,0,1,53800,53156,644
132861,643.988,643.992,644,1460,0,0,1,54444,53800,644
134321,643.99,643.993,644,1460,0,0,1,55088,54444,644
135781,643.991,643.994,644,1460,0,0,1,55732,55088,644
137241,643.992,643.995,644,1460,0,0,1,56376,55732,644
138701,643.993,643.995,644,1460,0,0,1,57020,56376,644
140161,643.994,643.996,644,1460,0,0,1,57664,57020,644
141621,643.995,643.996,644,1460,0,0,1,58308,57664,644
143081,643.995,643.997,644,1460,0,0,1,58952,58308,644
144541,643.996,643.997,644,1460,0,0,1,59596,58952,644
146001,643.997,643.998,644,1460,0,0,1,60240,59596,644
147461,643.997,643.998,644,1460,0,0,1,60884,60240,644
148921,643.997,643.998,644,1460,0,0,1,61528,60884,644
150381,643.998,643.998,644,1460,0,0,1,62172,61528,644
151841,643.998,643.999,644,1460,0,0,1,62816,62172,644
153301,643.998,643.999,644,1460,0,0,1,63460,62816,644
154761,643.998,643.999,644,1460,0,0,1,64104,63460,644
156221,643.999,643.999,644,1460,0,0,1,64748,64104,644
157681,643.999,643.999,644,1460,0,0,1,65392,64748,644
159141,643.999,643.999,644,1460,0,0,1,66036,65392,644
160601,643.999,643.999,644,1460,0,0,1,66680,66036,644
162061,643.999,643.999,644,1460,0,0,1,67324,66680,644
163521,643.999,644,644,1460,0,0,1,67968,67324,644
164981,643.999,644,644,1460,0,0,1,68612,67968,644
166441,643.999,644,644,1460,0,0,1,69256,68612,644
167901,644,644,644,1460,0,0,1,69900,69256,644
169361,644,644,644,1460,0,0,1,70544,69900,644
170821,644,644,644,1460,0,0,1,71188,70544,644
172281,644,644,644,1460,0,0,1,71832,71188,644
173741,644,644,644,1460,0,0,1,72476,71832,644
175201,644,644,644,1460,0,0,1,73120,72476,644
176661,644,644,644,1460,0,0,1,73764,73120,644
178121,644,644,644,1460,0,0,1,74408,73764,644
179581,644,644,644,1460,0,0,1,75052,74408,644
181041,644,644,644,1460,0,0,1,75696,75052,644
182501,644,644,644,1460,0,0,1,76340,75696,644
183961,644,644,644,1460,0,0,1,76984,76340,644
185421,644,644,644,1460,0,0,1,77628,76984,644
186881,644,644,644,1460,0,0,1,78272,77628,644
188341,644,644,644,1460,0,0,1,78916,78272,644
189801,644,644,644,1460,0,0,1,79560,78916,644
191261,644,644,644,1460,0,0,1,80204,79560,644
192721,644,644,644,1460,0.007,0,1,80848,80204,644
194181,654.25,644,726,1460,0.0213,0,1,81574,80848,726
195641,674.469,654.25,816,1460,0.05617,0,1,82390,81574,816
197101,725.16,674.469,1080,1460,0.150553,0,1,83470,82390,1080
198561,859.515,725.16,1800,1460,0.230498,0,1,85270,83470,1800
200021,968.326,859.515,1730,1460,0.275448,0,1,87000,85270,1730
201481,1026.66,968.326,1435,1460,0.347903,0,1,88435,87000,1435
202941,1081.33,1026.66,1464,1460,0.413113,0,1,89899,88435,1464
204401,1174.04,1081.33,1823,1460,0.443802,0,1,91722,89899,1823
205861,1209.78,1174.04,1460,1460,0.400421,0,1,93182,91722,1460
207321,1140.68,1209.78,657,1460,0.360379,0,1,93839,93182,657
208781,1078.6,1140.68,644,1460,0.324341,0,1,94483,93839,644
210241,1024.27,1078.6,644,1460,0.291907,0,1,95127,94483,644
211701,976.74,1024.27,644,1460,0.286716,0,1,95771,95127,644
213161,969.272,976.74,917,1460,0.293045,0,1,96688,95771,917
214621,979.488,969.272,1051,1460,0.30874,0,1,97739,96688,1051
216081,1007.05,979.488,1200,1460,0.330866,0,1,98939,97739,1200
217541,1040.17,1007.05,1272,1460,0.36678,0,1,100211,98939,1272
219001,1093.15,1040.17,1464,1460,0.430102,0,1,101675,100211,1464
220461,1178.51,1093.15,1776,1460,0.466092,0,1,103451,101675,1776
221921,1216.19,1178.51,1480,1460,0.486482,0,1,104931,103451,1480
223381,1241.04,1216.19,1415,1460,0.537834,0,1,106346,104931,1415
224841,1300.29,1241.04,1715,1460,0.565051,0,1,108061,106346,1715
226301,1329.38,1300.29,1533,1460,0.583546,0,1,109594,108061,1533
236521,1491.2,1471.08,1632,1460,0.705049,0,2,120769,119137,1632
237981,1529.8,1491.2,1800,1460,0.730544,0,2,122569,120769,1800
239441,1535.95,1529.8,1579,1460,0.71249,0,2,124148,122569,1579
240901,1506.95,1535.95,1304,1460,0.735241,0,2,125452,124148,1304
242361,1536.34,1506.95,1742,1460,0.761717,0,2,127194,125452,1742
243821,1563.04,1536.34,1750,1460,0.735545,0,2,128944,127194,1750
248201,1329.65,1412.17,752,1460,0.559312,0,1,131574,130822,752
249661,1265.45,1329.65,816,1460,0.540381,0,1,132390,131574,816
251121,1242.26,1265.45,1080,1460,0.586343,0,1,133470,132390,1080
255501,1362.97,1389.11,1180,1460,0.549844,0,1,138364,137184,1180
256961,1273.1,1362.97,644,1460,0.49586,0,1,139008,138364,644
258421,1195.59,1273.1,653,1460,0.507274,0,1,139661,139008,653
259881,1217.26,1195.59,1369,1460,0.554546,0,1,141030,139661,1369
261341,1356.36,1217.26,2330,1460,0.569092,0,1,143360,141030,2330
262801,1344.31,1356.36,1260,1460,0.537183,0,1,144620,143360,1260
264261,1291.52,1344.31,922,1460,0.483464,0,1,145542,144620,922
265721,1210.58,1291.52,644,1460,0.435118,0,1,146186,145542,644
267181,1139.76,1210.58,644,1460,0.391606,0,1,146830,146186,644
268641,1077.79,1139.76,644,1460,0.352445,0,1,147474,146830,644
270101,1023.57,1077.79,644,1460,0.317201,0,1,148118,147474,644
271561,976.12,1023.57,644,1460,0.286481,0,1,148762,148118,644
273021,935.105,976.12,648,1460,0.268833,0,1,149410,148762,648
274481,913.342,935.105,761,1460,0.254949,0,1,150171,149410,761
275941,897.299,913.342,785,1460,0.272455,0,1,150956,150171,785
277401,929.137,897.299,1152,1460,0.314209,0,1,152108,150956,1152
278861,995.995,929.137,1464,1460,0.371788,0,1,153572,152108,1464
280321,1084.5,995.995,1704,1460,0.434609,0,1,155276,153572,1704
281781,1140.93,1084.5,1536,1460,0.444148,0,1,156812,155276,1536
283241,1157.32,1140.93,1272,1460,0.481734,0,1,158084,156812,1272
284701,1214.15,1157.32,1612,1460,0.53356,0,1,159696,158084,1612
286161,1260.38,1214.15,1584,1460,0.548204,0,1,161280,159696,1584
287621,1285.84,1260.38,1464,1460,0.567384,0,1,162744,161280,1464
294921,1479.99,1434.28,1800,1460,0.709759,0,2,171114,169314,1800
296381,1510.99,1479.99,1728,1460,0.715783,0,2,172842,171114,1728
297841,1517.12,1510.99,1560,1460,0.744205,0,2,174402,172842,1560
299301,1537.48,1517.12,1680,1460,0.754784,0,2,176082,174402,1680
300761,1555.29,1537.48,1680,1460,0.744306,0,2,177762,176082,1680
302221,1537.88,1555.29,1416,1460,0.760875,0,2,179178,177762,1416
303681,1561.65,1537.88,1728,1460,0.776788,0,2,180906,179178,1728
305141,1582.44,1561.65,1728,1460,0.799109,0,2,182634,180906,1728
306601,1579.64,1582.44,1560,1460,0.802198,0,2,184194,182634,1560
308061,1586.18,1579.64,1632,1460,0.810978,0,2,185826,184194,1632
309521,1600.91,1586.18,1704,1460,0.79288,0,2,187530,185826,1704
310981,1571.8,1600.91,1368,1460,0.748592,0,2,188898,187530,1368
312441,1507.32,1571.8,1056,1460,0.728733,0,2,189954,188898,1056
313901,1480.91,1507.32,1296,1460,0.73886,0,2,191250,189954,1296
315361,1499.79,1480.91,1632,1460,0.764974,0,2,192882,191250,1632
316821,1504.32,1499.79,1536,1460,0.777476,0,2,194418,192882,1536
318281,1532.28,1504.32,1728,1460,0.786729,0,2,196146,194418,1728
319741,1550.74,1532.28,1680,1460,0.808056,0,2,197826,196146,1680
321201,1542.9,1550.74,1488,1460,0.79425,0,2,199314,197826,1488
322661,1530.04,1542.9,1440,1460,0.775825,0,2,200754,199314,1440
324121,1509.78,1530.04,1368,1460,0.781243,0,2,202122,200754,1368
325581,1525.06,1509.78,1632,1460,0.803119,0,2,203754,202122,1632
327041,1556.43,1525.06,1776,1460,0.793807,0,2,205530,203754,1776
328501,1550.87,1556.43,1512,1460,0.769426,0,2,207042,205530,1512
329961,1519.02,1550.87,1296,1460,0.771483,0,2,208338,207042,1296
331421,1527.14,1519.02,1584,1460,0.781335,0,2,209922,208338,1584
332881,1546.25,1527.14,1680,1460,0.803201,0,2,211602,209922,1680
334341,1571.97,1546.25,1752,1460,0.808881,0,2,213354,211602,1752
335801,1588.47,1571.97,1704,1460,0.804993,0,2,215058,213354,1704
337261,1584.91,1588.47,1560,1460,0.824494,0,2,216618,215058,1560
338721,1596.8,1584.91,1680,1460,0.832045,0,2,218298,216618,1680
340181,1622.2,1596.8,1800,1460,0.82584,0,2,220098,218298,1800
341641,1614.42,1622.2,1560,1460,0.841256,0,2,221658,220098,1560
343101,1637.62,1614.42,1800,1460,0.85713,0,2,223458,221658,1800
344561,1657.92,1637.62,1800,1460,0.871417,0,2,225258,223458,1800
346021,1657.68,1657.92,1656,1460,0.864276,0,2,226914,225258,1656
347481,1648.47,1657.68,1584,1460,0.856848,0,2,228498,226914,1584
348941,1640.41,1648.47,1584,1460,0.862163,0,2,230082,228498,1584
350401,1651.36,1640.41,1728,1460,0.849947,0,2,231810,230082,1728
351861,1642.94,1651.36,1584,1460,0.833952,0,2,233394,231810,1584
353321,1620.57,1642.94,1464,1460,0.850557,0,2,234858,233394,1464
354781,1640,1620.57,1776,1460,0.830501,0,2,236634,234858,1776
356241,1666,1640,1848,1460,0.830451,0,2,238482,236634,1848
357701,1661.75,1666,1632,1460,0.847406,0,2,240114,238482,1632
359161,1562.03,1661.75,864,1460,0.798665,0,2,240978,240114,864
360621,1525.78,1562.03,1272,1460,0.775799,0,2,242250,240978,1272
362081,1500.06,1525.78,1320,1460,0.795219,0,2,243570,242250,1320
363541,1534.55,1500.06,1776,1460,0.802697,0,2,245346,243570,1776
365001,1513.73,1534.55,1368,1460,0.791427,0,2,246714,245346,1368
366461,1507.51,1513.73,1464,1460,0.787285,0,2,248178,246714,1464
367921,1511.07,1507.51,1536,1460,0.808556,0,2,249714,248178,1536
369381,1490.19,1511.07,1344,1460,0.798701,0,2,251058,249714,1344
370841,1489.92,1490.19,1488,1460,0.791831,0,2,252546,251058,1488
372301,1492.68,1489.92,1512,1460,0.812647,0,2,254058,252546,1512
373761,1468.09,1492.68,1296,1460,0.782383,0,2,255354,254058,1296
375221,1440.58,1468.09,1248,1460,0.759144,0,2,256602,255354,1248
376681,1422.51,1440.58,1296,1460,0.75423,0,2,257898,256602,1296
378141,1430.69,1422.51,1488,1460,0.778807,0,2,259386,257898,1488
379601,1446.86,1430.69,1560,1460,0.779926,0,2,260946,259386,1560
381061,1467,1446.86,1608,1460,0.756934,0,2,262554,260946,1608
382521,1445.63,1467,1296,1460,0.77224,0,2,263850,262554,1296
383981,1480.92,1445.63,1728,1460,0.788016,0,2,265578,263850,1728
385441,1511.81,1480.92,1728,1460,0.780215,0,2,267306,265578,1728
386901,1508.83,1511.81,1488,1460,0.785193,0,2,268794,267306,1488
388361,1524.23,1508.83,1632,1460,0.806674,0,2,270426,268794,1632
389821,1516.7,1524.23,1464,1460,0.807006,0,2,271890,270426,1464
391281,1528.11,1516.7,1608,1460,0.805306,0,2,273498,271890,1608
392741,1535.1,1528.11,1584,1460,0.819775,0,2,275082,273498,1584
394201,1577.21,1535.1,1872,1460,0.800798,0,2,276954,275082,1872
395661,1554.06,1577.21,1392,1460,0.820718,0,2,278346,276954,1392
397121,1557.8,1554.06,1584,1460,0.773646,0,2,279930,278346,1584
398581,1522.08,1557.8,1272,1460,0.715282,0,2,281202,279930,1272
404421,1406.13,1373.86,1632,1460,0.710821,0,2,286002,284370,1632
405881,1416.36,1406.13,1488,1460,0.739739,0,2,287490,286002,1488
407341,1470.32,1416.36,1848,1460,0.756765,0,2,289338,287490,1848
408801,1502.53,1470.32,1728,1460,0.781089,0,2,291066,289338,1728
410261,1506.71,1502.53,1536,1460,0.76598,0,2,292602,291066,1536
411721,1492.37,1506.71,1392,1460,0.768382,0,2,293994,292602,1392
413181,1503.83,1492.37,1584,1460,0.791544,0,2,295578,293994,1584
414641,1537.85,1503.83,1776,1460,0.810389,0,2,297354,295578,1776
416101,1573.62,1537.85,1824,1460,0.82035,0,2,299178,297354,1824
417561,1592.91,1573.62,1728,1460,0.835315,0,2,300906,299178,1728
419021,1591.8,1592.91,1584,1460,0.840784,0,2,302490,300906,1584
420481,1605.83,1591.8,1704,1460,0.856705,0,2,304194,302490,1704
421941,1579.1,1605.83,1392,1460,0.848035,0,2,305586,304194,1392
423401,1588.71,1579.1,1656,1460,0.830231,0,2,307242,305586,1656
424861,1573.12,1588.71,1464,1460,0.808208,0,2,308706,307242,1464
426321,1547.48,1573.12,1368,1460,0.804387,0,2,310074,308706,1368
427781,1549.05,1547.48,1560,1460,0.820949,0,2,311634,310074,1560
429241,1580.42,1549.05,1800,1460,0.838854,0,2,313434,311634,1800
430701,1580.86,1580.42,1584,1460,0.837968,0,2,315018,313434,1584
432161,1587.26,1580.86,1632,1460,0.854172,0,2,316650,315018,1632
433621,1592.85,1587.26,1632,1460,0.849754,0,2,318282,316650,1632
435081,1585.74,1592.85,1536,1460,0.841779,0,2,319818,318282,1536
436541,1582.52,1585.74,1560,1460,0.852601,0,2,321378,319818,1560
438001,1606.71,1582.52,1776,1460,0.867341,0,2,323154,321378,1776
439461,1630.87,1606.71,1800,1460,0.869607,0,2,324954,323154,1800
440921,1640.01,1630.87,1704,1460,0.859646,0,2,326658,324954,1704
442381,1630.01,1640.01,1560,1460,0.873682,0,2,328218,326658,1560
443841,1600.26,1630.01,1392,1460,0.864313,0,2,329610,328218,1392
445301,1643.23,1600.26,1944,1460,0.862882,0,2,331554,329610,1944
446761,1644.82,1643.23,1656,1460,0.876594,0,2,333210,331554,1656
448221,1592.22,1644.82,1224,1460,0.886935,0,2,334434,333210,1224
449681,1636.19,1592.22,1944,1460,0.845241,0,2,336378,334434,1944
451141,1581.67,1636.19,1200,1460,0.847717,0,2,337578,336378,1200
452601,1593.96,1581.67,1680,1460,0.862945,0,2,339258,337578,1680
454061,1622.72,1593.96,1824,1460,0.854651,0,2,341082,339258,1824
455521,1623.88,1622.72,1632,1460,0.850186,0,2,342714,341082,1632
456981,1621.89,1623.88,1608,1460,0.865167,0,2,344322,342714,1608
458441,1608.15,1621.89,1512,1460,0.85065,0,2,345834,344322,1512
459901,1602.14,1608.15,1560,1460,0.830585,0,2,347394,345834,1560
461361,1578.87,1602.14,1416,1460,0.822527,0,2,348810,347394,1416
462821,1573.51,1578.87,1536,1460,0.840274,0,2,350346,348810,1536
464281,1586.82,1573.51,1680,1460,0.853247,0,2,352026,350346,1680
465741,1613.47,1586.82,1800,1460,0.867922,0,2,353826,352026,1800
467201,1609.78,1613.47,1584,1460,0.86713,0,2,355410,353826,1584
468661,1624.56,1609.78,1728,1460,0.867417,0,2,357138,355410,1728
470121,1631.49,1624.56,1680,1460,0.880675,0,2,358818,357138,1680
471581,1556.56,1631.49,1032,1460,0.889608,0,2,359850,358818,1032
473041,1667.99,1556.56,2448,1460,0.831647,0,2,362298,359850,2448
474501,1591.49,1667.99,1056,1460,0.843482,0,2,363354,362298,1056
475961,1614.55,1591.49,1776,1460,0.848134,0,2,365130,363354,1776
477421,1688.73,1614.55,2208,1460,0.856321,0,2,367338,365130,2208
478881,1696.64,1688.73,1752,1460,0.829688,0,2,369090,367338,1752
480341,1652.56,1696.64,1344,1460,0.81372,0,2,370434,369090,1344
481801,1625.99,1652.56,1440,1460,0.832348,0,2,371874,370434,1440
483261,1789.87,1625.99,2937,1460,0.782113,0,2,374811,371874,2937
484721,1722.13,1789.87,1248,1460,0.730902,0,2,376059,374811,1248
486181,1626.87,1722.13,960,1460,0.757811,0,2,377019,376059,960
487641,1635.88,1626.87,1699,1460,0.78203,0,2,378718,377019,1699
489101,1644.4,1635.88,1704,1460,0.768827,0,2,380422,378718,1704
490561,1615.85,1644.4,1416,1460,0.791945,0,2,381838,380422,1416
492021,1611.87,1615.85,1584,1460,0.81275,0,2,383422,381838,1584
493481,1698.38,1611.87,2304,1460,0.831475,0,2,385726,383422,2304
494941,1708.59,1698.38,1780,1460,0.837328,0,2,387506,385726,1780
496401,1759.01,1708.59,2112,1460,0.820595,0,2,389618,387506,2112
497861,1723.39,1759.01,1474,1460,0.838535,0,2,391092,389618,1474
499321,1721.21,1723.39,1706,1460,0.839682,0,2,392798,391092,1706
500781,1743.56,1721.21,1900,1460,0.824714,0,2,394698,392798,1900
502241,1708.62,1743.56,1464,1460,0.831242,0,2,396162,394698,1464
503701,1708.04,1708.62,1704,1460,0.848118,0,2,397866,396162,1704
505161,1665.53,1708.04,1368,1460,0.863306,0,2,399234,397866,1368
506621,1764.47,1665.53,2457,1460,0.807976,0,2,401691,399234,2457
508081,1669.91,1764.47,1008,1460,0.822178,0,2,402699,401691,1008
509541,1683.17,1669.91,1776,1460,0.83996,0,2,404475,402699,1776
511001,1673.77,1683.17,1608,1460,0.855964,0,2,406083,404475,1608
512461,1632.55,1673.77,1344,1460,0.852368,0,2,407427,406083,1344
513921,1638.48,1632.55,1680,1460,0.867131,0,2,409107,407427,1680
515381,1653.55,1638.48,1759,1460,0.864418,0,2,410866,409107,1759
516841,1665.85,1653.55,1752,1460,0.877976,0,2,412618,410866,1752
518301,1601.62,1665.85,1152,1460,0.890179,0,2,413770,412618,1152
519761,1631.92,1601.62,1844,1460,0.864161,0,2,415614,413770,1844
521221,1607.93,1631.92,1440,1460,0.798745,0,2,417054,415614,1440
522681,1517.94,1607.93,888,1460,0.75787,0,2,417942,417054,888
524141,1466.2,1517.94,1104,1460,0.782083,0,2,419046,417942,1104
525601,1500.3,1466.2,1739,1460,0.798875,0,2,420785,419046,1739
527061,1522.76,1500.3,1680,1460,0.807987,0,2,422465,420785,1680
528521,1545.41,1522.76,1704,1460,0.824189,0,2,424169,422465,1704
529981,1568.24,1545.41,1728,1460,0.80477,0,2,425897,424169,1728
