#Ack,ack_ewma(ms),send_ewma(ms),rtt_ratio,cwnd (Bytes),Last Router Ocupation Ack Arriaval(Packets),Last Router Ocupation Packet Sent(Packets),Network Situation,AckArrival(ms),TSInsideAck(ms),RTTAck(ms)
35041,555.483,582.667,644,1460,0,0,1,11296,10652,644
36501,566.548,590.334,644,1460,0,0,1,11940,11296,644
37961,576.229,597.042,644,1460,0,0,1,12584,11940,644
39421,584.701,602.912,644,1460,0,0,1,13228,12584,644
40881,592.113,608.048,644,1460,0,0,1,13872,13228,644
42341,598.599,612.542,644,1460,0,0,1,14516,13872,644
43801,604.274,616.474,644,1460,0,0,1,15160,14516,644
45261,609.24,619.915,644,1460,0,0,1,15804,15160,644
46721,613.585,622.926,644,1460,0,0,1,16448,15804,644
48181,617.387,625.56,644,1460,0,0,1,17092,16448,644
49641,620.713,627.865,644,1460,0,0,1,17736,17092,644
51101,623.624,629.882,644,1460,0,0,1,18380,17736,644
52561,626.171,631.647,644,1460,0,0,1,19024,18380,644
54021,628.4,633.191,644,1460,0,0,1,19668,19024,644
55481,630.35,634.542,644,1460,0,0,1,20312,19668,644
56941,632.056,635.724,644,1460,0,0,1,20956,20312,644
58401,633.549,636.759,644,1460,0,0,1,21600,20956,644
59861,634.855,637.664,644,1460,0,0,1,22244,21600,644
61321,635.999,638.456,644,1460,0,0,1,22888,22244,644
62781,636.999,639.149,644,1460,0,0,1,23532,22888,644
64241,637.874,639.755,644,1460,0,0,1,24176,23532,644
65701,638.64,640.286,644,1460,0,0,1,24820,24176,644
67161,639.31,640.75,644,1460,0,0,1,25464,24820,644
68621,639.896,641.156,644,1460,0,0,1,26108,25464,644
70081,640.409,641.512,644,1460,0,0,1,26752,26108,644
71541,640.858,641.823,644,1460,0,0,1,27396,26752,644
73001,641.251,642.095,644,1460,0,0,1,28040,27396,644
74461,641.594,642.333,644,1460,0,0,1,28684,28040,644
75921,641.895,642.541,644,1460,0,0,1,29328,28684,644
77381,642.158,642.724,644,1460,0,0,1,29972,29328,644
78841,642.388,642.883,644,1460,0,0,1,30616,29972,644
80301,642.59,643.023,644,1460,0,0,1,31260,30616,644
81761,642.766,643.145,644,1460,0,0,1,31904,31260,644
83221,642.92,643.252,644,1460,0,0,1,32548,31904,644
84681,643.055,643.345,644,1460,0,0,1,33192,32548,644
86141,643.173,643.427,644,1460,0,0,1,33836,33192,644
87601,643.277,643.499,644,1460,0,0,1,34480,33836,644
89061,643.367,643.561,644,1460,0,0,1,35124,34480,644
90521,643.446,643.616,644,1460,0,0,1,35768,35124,644
91981,643.515,643.664,644,1460,0,0,1,36412,35768,644
93441,643.576,643.706,644,1460,0,0,1,37056,36412,644
94901,643.629,643.743,644,1460,0,0,1,37700,37056,644
96361,643.675,643.775,644,1460,0,0,1,38344,37700,644
97821,643.716,643.803,644,1460,0,0,1,38988,38344,644
99281,643.751,643.828,644,1460,0,0,1,39632,38988,644
100741,643.783,643.849,644,1460,0,0,1,40276,39632,644
102201,643.81,643.868,644,1460,0,0,1,40920,40276,644
103661,643.834,643.885,644,1460,0,0,1,41564,40920,644
105121,643.854,643.899,644,1460,0,0,1,42208,41564,644
106581,643.873,643.912,644,1460,0,0,1,42852,42208,644
108041,643.888,643.923,644,1460,0,0,1,43496,42852,644
109501,643.902,643.932,644,1460,0,0,1,44140,43496,644
110961,643.915,643.941,644,1460,0,0,1,44784,44140,644
112421,643.925,643.948,644,1460,0,0,1,45428,44784,644
113881,643.935,643.955,644,1460,0,0,1,46072,45428,644
115341,643.943,643.96,644,1460,0,0,1,46716,46072,644
116801,643.95,643.965,644,1460,0,0,1,47360,46716,644
118261,643.956,643.97,644,1460,0,0,1,48004,47360,644
119721,643.962,643.973,644,1460,0,0,1,48648,48004,644
121181,643.966,643.977,644,1460,0,0,1,49292,48648,644
122641,643.971,643.98,644,1460,0,0,1,49936,49292,644
124101,643.974,643.982,644,1460,0,0,1,50580,49936,644
125561,643.978,643.984,644,1460,0,0,1,51224,50580,644
127021,643.98,643.986,644,1460,0,0,1,51868,51224,644
128481,643.983,643.988,644,1460,0,0,1,52512,51868,644
129941,643.985,643.99,644,1460,0,0,1,53156,52512,644
131401,643.987,643.991,644,1460,0,0,1,53800,53156,644
132861,643.988,643.992,644,1460,0,0,1,54444,53800,644
134321,643.99,643.993,644,1460,0,0,1,55088,54444,644
135781,643.991,643.994,644,1460,0,0,1,55732,55088,644
137241,643.992,643.995,644,1460,0,0,1,56376,55732,644
138701,643.993,643.995,644,1460,0,0,1,57020,56376,644
140161,643.994,643.996,644,1460,0,0,1,57664,57020,644
141621,643.995,643.996,644,1460,0,0,1,58308,57664,644
143081,643.995,643.997,644,1460,0,0,1,58952,58308,644
144541,643.996,643.997,644,1460,0,0,1,59596,58952,644
146001,643.997,643.998,644,1460,0,0,1,60240,59596,644
147461,643.997,643.998,644,1460,0,0,1,60884,60240,644
148921,643.997,643.998,644,1460,0,0,1,61528,60884,644
150381,643.998,643.998,644,1460,0,0,1,62172,61528,644
151841,643.998,643.999,644,1460,0,0,1,62816,62172,644
153301,643.998,643.999,644,1460,0,0,1,63460,62816,644
154761,643.998,643.999,644,1460,0,0,1,64104,63460,644
156221,643.999,643.999,644,1460,0,0,1,64748,64104,644
157681,643.999,643.999,644,1460,0,0,1,65392,64748,644
159141,643.999,643.999,644,1460,0,0,1,66036,65392,644
160601,643.999,643.999,644,1460,0,0,1,66680,66036,644
162061,643.999,643.999,644,1460,0,0,1,67324,66680,644
163521,643.999,644,644,1460,0,0,1,67968,67324,644
164981,643.999,644,644,1460,0,0,1,68612,67968,644
166441,643.999,644,644,1460,0,0,1,69256,68612,644
167901,644,644,644,1460,0,0,1,69900,69256,644
169361,644,644,644,1460,0,0,1,70544,69900,644
170821,644,644,644,1460,0,0,1,71188,70544,644
172281,644,644,644,1460,0,0,1,71832,71188,644
173741,644,644,644,1460,0,0,1,72476,71832,644
175201,644,644,644,1460,0,0,1,73120,72476,644
176661,644,644,644,1460,0,0,1,73764,73120,644
178121,644,644,644,1460,0,0,1,74408,73764,644
179581,644,644,644,1460,0,0,1,75052,74408,644
181041,644,644,644,1460,0,0,1,75696,75052,644
182501,644,644,644,1460,0,0,1,76340,75696,644
183961,644,644,644,1460,0,0,1,76984,76340,644
185421,644,644,644,1460,0,0,1,77628,76984,644
186881,644,644,644,1460,0,0,1,78272,77628,644
188341,644,644,644,1460,0,0,1,78916,78272,644
189801,644,644,644,1460,0,0,1,79560,78916,644
191261,644,644,644,1460,0,0,1,80204,79560,644
192721,644,644,644,1460,0.007,0,1,80848,80204,644
194181,654.25,644,726,1460,0.0213,0,1,81574,80848,726
195641,674.469,654.25,816,1460,0.05617,0,1,82390,81574,816
197101,725.16,674.469,1080,1460,0.150553,0,1,83470,82390,1080
198561,859.515,725.16,1800,1460,0.230498,0,1,85270,83470,1800
200021,968.326,859.515,1730,1460,0.275448,0,1,87000,85270,1730
201481,1026.66,968.326,1435,1460,0.347903,0,1,88435,87000,1435
202941,1081.33,1026.66,1464,1460,0.413113,0,1,89899,88435,1464
204401,1174.04,1081.33,1823,1460,0.443802,0,1,91722,89899,1823
205861,1209.78,1174.04,1460,1460,0.400421,0,1,93182,91722,1460
207321,1140.68,1209.78,657,1460,0.360379,0,1,93839,93182,657
208781,1078.6,1140.68,644,1460,0.324341,0,1,94483,93839,644
210241,1024.27,1078.6,644,1460,0.291907,0,1,95127,94483,644
211701,976.74,1024.27,644,1460,0.286716,0,1,95771,95127,644
213161,969.272,976.74,917,1460,0.293045,0,1,96688,95771,917
214621,979.488,969.272,1051,1460,0.30874,0,1,97739,96688,1051
216081,1007.05,979.488,1200,1460,0.330866,0,1,98939,97739,1200
217541,1040.17,1007.05,1272,1460,0.36678,0,1,100211,98939,1272
219001,1093.15,1040.17,1464,1460,0.430102,0,1,101675,100211,1464
220461,1178.51,1093.15,1776,1460,0.466092,0,1,103451,101675,1776
221921,1216.19,1178.51,1480,1460,0.486482,0,1,104931,103451,1480
223381,1241.04,1216.19,1415,1460,0.537834,0,1,106346,104931,1415
224841,1300.29,1241.04,1715,1460,0.565051,0,1,108061,106346,1715
226301,1329.38,1300.29,1533,1460,0.583546,0,1,109594,108061,1533
236521,1491.2,1471.08,1632,1460,0.705049,0,2,120769,119137,1632
237981,1529.8,1491.2,1800,1460,0.730544,0,2,122569,120769,1800
239441,1535.95,1529.8,1579,1460,0.71249,0,2,124148,122569,1579
240901,1506.95,1535.95,1304,1460,0.735241,0,2,125452,124148,1304
242361,1536.34,1506.95,1742,1460,0.761717,0,2,127194,125452,1742
243821,1563.04,1536.34,1750,1460,0.735545,0,2,128944,127194,1750
248201,1329.65,1412.17,752,1460,0.559312,0,1,131574,130822,752
249661,1265.45,1329.65,816,1460,0.540381,0,1,132390,131574,816
251121,1242.26,1265.45,1080,1460,0.586343,0,1,133470,132390,1080
255501,1362.97,1389.11,1180,1460,0.549844,0,1,138364,137184,1180
256961,1273.1,1362.97,644,1460,0.49586,0,1,139008,138364,644
258421,1195.59,1273.1,653,1460,0.507274,0,1,139661,139008,653
259881,1217.26,1195.59,1369,1460,0.554546,0,1,141030,139661,1369
261341,1356.36,1217.26,2330,1460,0.569092,0,1,143360,141030,2330
262801,1344.31,1356.36,1260,1460,0.537183,0,1,144620,143360,1260
264261,1291.52,1344.31,922,1460,0.483464,0,1,145542,144620,922
265721,1210.58,1291.52,644,1460,0.435118,0,1,146186,145542,644
267181,1139.76,1210.58,644,1460,0.391606,0,1,146830,146186,644
268641,1077.79,1139.76,644,1460,0.352445,0,1,147474,146830,644
270101,1023.57,1077.79,644,1460,0.317201,0,1,148118,147474,644
271561,976.12,1023.57,644,1460,0.286481,0,1,148762,148118,644
273021,935.105,976.12,648,1460,0.270833,0,1,149410,148762,648
274481,915.592,935.105,779,1460,0.256749,0,1,150189,149410,779
275941,899.268,915.592,785,1460,0.274074,0,1,150974,150189,785
277401,930.859,899.268,1152,1460,0.315667,0,1,152126,150974,1152
278861,997.502,930.859,1464,1460,0.3731,0,1,153590,152126,1464
280321,1085.81,997.502,1704,1460,0.43579,0,1,155294,153590,1704
281781,1142.09,1085.81,1536,1460,0.445211,0,1,156830,155294,1536
283241,1158.33,1142.09,1272,1460,0.48269,0,1,158102,156830,1272
284701,1215.04,1158.33,1612,1460,0.534421,0,1,159714,158102,1612
286161,1261.16,1215.04,1584,1460,0.548979,0,1,161298,159714,1584
287621,1286.51,1261.16,1464,1460,0.568081,0,1,162762,161298,1464
294921,1480.34,1434.67,1800,1460,0.710171,0,2,171132,169332,1800
296381,1511.3,1480.34,1728,1460,0.716154,0,2,172860,171132,1728
297841,1517.39,1511.3,1560,1460,0.744538,0,2,174420,172860,1560
299301,1537.71,1517.39,1680,1460,0.755084,0,2,176100,174420,1680
300761,1555.5,1537.71,1680,1460,0.744576,0,2,177780,176100,1680
302221,1538.06,1555.5,1416,1460,0.761118,0,2,179196,177780,1416
303681,1561.8,1538.06,1728,1460,0.777006,0,2,180924,179196,1728
305141,1582.58,1561.8,1728,1460,0.799306,0,2,182652,180924,1728
306601,1579.76,1582.58,1560,1460,0.802375,0,2,184212,182652,1560
308061,1586.29,1579.76,1632,1460,0.811138,0,2,185844,184212,1632
309521,1601,1586.29,1704,1460,0.793024,0,2,187548,185844,1704
310981,1571.88,1601,1368,1460,0.748722,0,2,188916,187548,1368
312441,1507.39,1571.88,1056,1460,0.728849,0,2,189972,188916,1056
313901,1480.97,1507.39,1296,1460,0.738964,0,2,191268,189972,1296
315361,1499.85,1480.97,1632,1460,0.765068,0,2,192900,191268,1632
316821,1504.37,1499.85,1536,1460,0.777561,0,2,194436,192900,1536
318281,1532.32,1504.37,1728,1460,0.786805,0,2,196164,194436,1728
319741,1550.78,1532.32,1680,1460,0.808125,0,2,197844,196164,1680
321201,1542.93,1550.78,1488,1460,0.794312,0,2,199332,197844,1488
322661,1530.07,1542.93,1440,1460,0.775881,0,2,200772,199332,1440
324121,1509.81,1530.07,1368,1460,0.781293,0,2,202140,200772,1368
325581,1525.08,1509.81,1632,1460,0.803164,0,2,203772,202140,1632
327041,1556.45,1525.08,1776,1460,0.793847,0,2,205548,203772,1776
328501,1550.89,1556.45,1512,1460,0.769462,0,2,207060,205548,1512
329961,1519.03,1550.89,1296,1460,0.771516,0,2,208356,207060,1296
331421,1527.15,1519.03,1584,1460,0.781365,0,2,209940,208356,1584
332881,1546.26,1527.15,1680,1460,0.803228,0,2,211620,209940,1680
334341,1571.97,1546.26,1752,1460,0.808905,0,2,213372,211620,1752
335801,1588.48,1571.97,1704,1460,0.805015,0,2,215076,213372,1704
337261,1584.92,1588.48,1560,1460,0.824513,0,2,216636,215076,1560
338721,1596.8,1584.92,1680,1460,0.832062,0,2,218316,216636,1680
340181,1622.2,1596.8,1800,1460,0.825856,0,2,220116,218316,1800
341641,1614.43,1622.2,1560,1460,0.84127,0,2,221676,220116,1560
343101,1637.62,1614.43,1800,1460,0.857143,0,2,223476,221676,1800
344561,1657.92,1637.62,1800,1460,0.871429,0,2,225276,223476,1800
346021,1657.68,1657.92,1656,1460,0.864286,0,2,226932,225276,1656
347481,1648.47,1657.68,1584,1460,0.856857,0,2,228516,226932,1584
348941,1640.41,1648.47,1584,1460,0.863172,0,2,230100,228516,1584
350401,1651.36,1640.41,1728,1460,0.871854,0,2,231828,230100,1728
351861,1672.94,1651.36,1824,1460,0.869669,0,2,233652,231828,1824
353321,1670.82,1672.94,1656,1460,0.882702,0,2,235308,233652,1656
354781,1635.97,1670.82,1392,1460,0.860432,0,2,236700,235308,1392
356241,1659.47,1635.97,1824,1460,0.855389,0,2,238524,236700,1824
357701,1653.04,1659.47,1608,1460,0.86985,0,2,240132,238524,1608
359161,1557.41,1653.04,888,1460,0.882865,0,2,241020,240132,888
360621,1701.73,1557.41,2712,1460,0.857578,0,2,243732,241020,2712
362081,1708.02,1701.73,1752,1460,0.846821,0,2,245484,243732,1752
363541,1686.51,1708.02,1536,1460,0.835138,0,2,247020,245484,1536
365001,1664.7,1686.51,1512,1460,0.851625,0,2,248532,247020,1512
366461,1669.61,1664.7,1704,1460,0.848462,0,2,250236,248532,1704
367921,1663.16,1669.61,1618,1460,0.832616,0,2,251854,250236,1618
369381,1638.27,1663.16,1464,1460,0.849354,0,2,253318,251854,1464
370841,1640.48,1638.27,1656,1460,0.829419,0,2,254974,253318,1656
372301,1615.42,1640.48,1440,1460,0.797477,0,2,256414,254974,1440
373761,1569.49,1615.42,1248,1460,0.764729,0,2,257662,256414,1248
375221,1523.31,1569.49,1200,1460,0.788256,0,2,258862,257662,1200
376681,1488.89,1523.31,1248,1460,0.799431,0,2,260110,258862,1248
378141,1551.78,1488.89,1992,1460,0.785488,0,2,262102,260110,1992
379601,1539.31,1551.78,1452,1460,0.806939,0,2,263554,262102,1452
381061,1541.9,1539.31,1560,1460,0.815245,0,2,265114,263554,1560
382521,1562.16,1541.9,1704,1460,0.833721,0,2,266818,265114,1704
383981,1561.89,1562.16,1560,1460,0.850348,0,2,268378,266818,1560
385441,1594.65,1561.89,1824,1460,0.836314,0,2,270202,268378,1824
386901,1581.32,1594.65,1488,1460,0.852682,0,2,271690,270202,1488
388361,1521.66,1581.32,1104,1460,0.855414,0,2,272794,271690,1104
389821,1625.45,1521.66,2352,1460,0.869873,0,2,275146,272794,2352
391281,1596.27,1625.45,1392,1460,0.882885,0,2,276538,275146,1392
392741,1561.73,1596.27,1320,1460,0.861597,0,2,277858,276538,1320
394201,1546.52,1561.73,1440,1460,0.806437,0,2,279298,277858,1440
395661,1479.2,1546.52,1008,1460,0.764793,0,2,280306,279298,1008
397121,1432.3,1479.2,1104,1460,0.739314,0,2,281410,280306,1104
398581,1409.26,1432.3,1248,1460,0.702383,0,2,282658,281410,1248
401501,1366.59,1368.11,1356,1460,0.72383,0,2,285094,283738,1356
402961,1342.77,1366.59,1176,1460,0.751447,0,2,286270,285094,1176
404421,1432.92,1342.77,2064,1460,0.727302,0,2,288334,286270,2064
405881,1412.81,1432.92,1272,1460,0.717572,0,2,289606,288334,1272
407341,1410.21,1412.81,1392,1460,0.745815,0,2,290998,289606,1392
408801,1440.93,1410.21,1656,1460,0.736233,0,2,292654,290998,1656
410261,1473.81,1440.93,1704,1460,0.73361,0,2,294358,292654,1704
411721,1474.59,1473.81,1480,1460,0.744249,0,2,295838,294358,1480
413181,1496.39,1474.59,1649,1460,0.769824,0,2,297487,295838,1649
414641,1531.34,1496.39,1776,1460,0.787842,0,2,299263,297487,1776
416101,1561.92,1531.34,1776,1460,0.780058,0,2,301039,299263,1776
417561,1552.68,1561.92,1488,1460,0.797052,0,2,302527,301039,1488
419021,1580.6,1552.68,1776,1460,0.790347,0,2,304303,302527,1776
420481,1572.02,1580.6,1512,1460,0.772312,0,2,305815,304303,1512
421941,1546.52,1572.02,1368,1460,0.770081,0,2,307183,305815,1368
423401,1545.2,1546.52,1536,1460,0.786073,0,2,308719,307183,1536
424861,1571.05,1545.2,1752,1460,0.807465,0,2,310471,308719,1752
426321,1584.67,1571.05,1680,1460,0.787719,0,2,312151,310471,1680
427781,1557.59,1584.67,1368,1460,0.771947,0,2,313519,312151,1368
429241,1536.89,1557.59,1392,1460,0.794752,0,2,314911,313519,1392
430701,1566.78,1536.89,1776,1460,0.815277,0,2,316687,314911,1776
432161,1604.93,1566.78,1872,1460,0.800749,0,2,318559,316687,1872
433621,1584.31,1604.93,1440,1460,0.820674,0,2,319999,318559,1440
435081,1614.28,1584.31,1824,1460,0.836607,0,2,321823,319999,1824
436541,1643.49,1614.28,1848,1460,0.852946,0,2,323671,321823,1848
438001,1645.05,1643.49,1656,1460,0.867652,0,2,325327,323671,1656
439461,1643.42,1645.05,1632,1460,0.835886,0,2,326959,325327,1632
440921,1599.99,1643.42,1296,1460,0.847298,0,2,328255,326959,1296
442381,1622,1599.99,1776,1460,0.862568,0,2,330031,328255,1776
443841,1623.25,1622,1632,1460,0.836311,0,2,331663,330031,1632
445301,1591.34,1623.25,1368,1460,0.80968,0,2,333031,331663,1368
446761,1557.42,1591.34,1320,1460,0.827712,0,2,334351,333031,1320
448221,1590.74,1557.42,1824,1460,0.843941,0,2,336175,334351,1824
449681,1613.9,1590.74,1776,1460,0.851547,0,2,337951,336175,1776
451141,1634.16,1613.9,1776,1460,0.866392,0,2,339727,337951,1776
452601,1615.89,1634.16,1488,1460,0.846753,0,2,341215,339727,1488
454061,1596.91,1615.89,1464,1460,0.823078,0,2,342679,341215,1464
455521,1568.29,1596.91,1368,1460,0.81777,0,2,344047,342679,1368
456981,1567.26,1568.29,1560,1460,0.835993,0,2,345607,344047,1560
458441,1560.35,1567.26,1512,1460,0.842394,0,2,347119,345607,1512
459901,1584.31,1560.35,1752,1460,0.858154,0,2,348871,347119,1752
461361,1572.27,1584.31,1488,1460,0.861339,0,2,350359,348871,1488
462821,1588.73,1572.27,1704,1460,0.852205,0,2,352063,350359,1704
464281,1585.14,1588.73,1560,1460,0.866984,0,2,353623,352063,1560
465741,1567,1585.14,1440,1460,0.847286,0,2,355063,353623,1440
467201,1551.12,1567,1440,1460,0.859557,0,2,356503,355063,1440
468661,1582.23,1551.12,1800,1460,0.873602,0,2,358303,356503,1800
470121,1597.45,1582.23,1704,1460,0.861241,0,2,360007,358303,1704
471581,1589.77,1597.45,1536,1460,0.870117,0,2,361543,360007,1536
473041,1613.05,1589.77,1776,1460,0.872106,0,2,363319,361543,1776
474501,1624.42,1613.05,1704,1460,0.884895,0,2,365023,363319,1704
475961,1616.37,1624.42,1560,1460,0.883406,0,2,366583,365023,1560
477421,1615.32,1616.37,1608,1460,0.895065,0,2,368191,366583,1608
478881,1635.41,1615.32,1776,1460,0.873559,0,2,369967,368191,1776
480341,1616.98,1635.41,1488,1460,0.867203,0,2,371455,369967,1488
481801,1615.86,1616.98,1608,1460,0.880482,0,2,373063,371455,1608
483261,1620.88,1615.86,1656,1460,0.885434,0,2,374719,373063,1656
484721,1646.27,1620.88,1824,1460,0.883891,0,2,376543,374719,1824
486181,1656.48,1646.27,1728,1460,0.895502,0,2,378271,376543,1728
487641,1671.42,1656.48,1776,1460,0.891952,0,2,380047,378271,1776
489101,1681.49,1671.42,1752,1460,0.867756,0,2,381799,380047,1752
490561,1648.31,1681.49,1416,1460,0.871981,0,2,383215,381799,1416
492021,1658.27,1648.31,1728,1460,0.875783,0,2,384943,383215,1728
493481,1666.99,1658.27,1728,1460,0.885204,0,2,386671,384943,1728
494941,1671.61,1666.99,1704,1460,0.865684,0,2,388375,386671,1704
496401,1645.66,1671.61,1464,1460,0.856116,0,2,389839,388375,1464
497861,1634.95,1645.66,1560,1460,0.870504,0,2,391399,389839,1560
499321,1649.58,1634.95,1752,1460,0.883454,0,2,393151,391399,1752
500781,1749.39,1649.58,2448,1460,0.848108,0,2,395599,393151,2448
502241,1689.71,1749.39,1272,1460,0.846297,0,2,396871,395599,1272
503701,1682.5,1689.71,1632,1460,0.861668,0,2,398503,396871,1632
505161,1664.19,1682.5,1536,1460,0.859501,0,2,400039,398503,1536
506621,1681.16,1664.19,1800,1460,0.866551,0,2,401839,400039,1800
508081,1690.02,1681.16,1752,1460,0.866896,0,2,403591,401839,1752
509541,1661.77,1690.02,1464,1460,0.847206,0,2,405055,403591,1464
511001,1634.04,1661.77,1440,1460,0.859486,0,2,406495,405055,1440
512461,1654.79,1634.04,1800,1460,0.868537,0,2,408295,406495,1800
513921,1651.94,1654.79,1632,1460,0.850683,0,2,409927,408295,1632
515381,1628.45,1651.94,1464,1460,0.862615,0,2,411391,409927,1464
516841,1649.89,1628.45,1800,1460,0.868353,0,2,413191,411391,1800
518301,1641.66,1649.89,1584,1460,0.844518,0,2,414775,413191,1584
519761,1610.45,1641.66,1392,1460,0.847066,0,2,416167,414775,1392
521221,1619.14,1610.45,1680,1460,0.86236,0,2,417847,416167,1680
522681,1620.75,1619.14,1632,1460,0.869124,0,2,419479,417847,1632
524141,1637.16,1620.75,1752,1460,0.855211,0,2,421231,419479,1752
525601,1621.51,1637.16,1512,1460,0.86969,0,2,422743,421231,1512
527061,1583.82,1621.51,1320,1460,0.870721,0,2,424063,422743,1320
528521,1628.84,1583.82,1944,1460,0.867649,0,2,426007,424063,1944
529981,1629.24,1628.84,1632,1460,0.854884,0,2,427639,426007,1632
531441,1620.58,1629.24,1560,1460,0.850396,0,2,429199,427639,1560
532901,1619.01,1620.58,1608,1460,0.865356,0,2,430807,429199,1608
534361,1638.63,1619.01,1776,1460,0.873821,0,2,432583,430807,1776
